time,current,voltage
0.000000,0.800000,0.000000
0.000100,0.799932,0.033895
0.000200,0.799864,0.067788
0.000400,0.799729,0.135567
0.000800,0.799458,0.271092
0.001600,0.798916,0.542002
0.003200,0.797833,1.083273
0.006400,0.795673,2.163617
0.012800,0.791369,4.315538
0.022800,0.784691,7.654647
0.032800,0.778069,10.965578
0.042800,0.771503,14.248569
0.052800,0.764992,17.503855
0.062800,0.758537,20.731671
0.072800,0.752136,23.932248
0.082800,0.745788,27.105815
0.092800,0.739495,30.252602
0.102800,0.733254,33.372833
0.112800,0.727067,36.466733
0.122800,0.720931,39.534524
0.132800,0.714847,42.576427
0.142800,0.708815,45.592660
0.152800,0.702833,48.583439
0.162800,0.696902,51.548979
0.172800,0.691021,54.489494
0.182800,0.685190,57.405195
0.192800,0.679407,60.296290
0.202800,0.673674,63.162988
0.212800,0.667989,66.005495
0.222800,0.662352,68.824014
0.232800,0.656763,71.618748
0.242800,0.651220,74.389898
0.252800,0.645725,77.137662
0.262800,0.640276,79.862239
0.272800,0.634872,82.563823
0.282800,0.629515,85.242610
0.292800,0.624202,87.898790
0.302800,0.618935,90.532556
0.312800,0.613712,93.144095
0.322800,0.608533,95.733597
0.332800,0.603398,98.301246
0.342800,0.598306,100.847227
0.352800,0.593257,103.371723
0.362800,0.588250,105.874915
0.372800,0.583286,108.356983
0.382800,0.578364,110.818106
0.392800,0.573483,113.258459
0.402800,0.568644,115.678219
0.412800,0.563845,118.077559
0.422800,0.559087,120.456651
0.432800,0.554369,122.815667
0.442800,0.549690,125.154775
0.452800,0.545052,127.474144
0.462800,0.540452,129.773940
0.472800,0.535891,132.054329
0.482800,0.531369,134.315474
0.492800,0.526885,136.557537
0.502800,0.522439,138.780681
0.512800,0.518030,140.985063
0.522800,0.513658,143.170843
0.532800,0.509324,145.338178
0.542800,0.505026,147.487223
0.552800,0.500764,149.618132
0.562800,0.496538,151.731059
0.572800,0.492348,153.826156
0.582800,0.488193,155.903572
0.592800,0.484073,157.963458
0.602800,0.479988,160.005960
0.612800,0.475938,162.031226
0.622800,0.471921,164.039402
0.632800,0.467939,166.030630
0.642800,0.463990,168.005055
0.652800,0.460074,169.962819
0.662800,0.456192,171.904061
0.672800,0.452342,173.828921
0.682800,0.448525,175.737538
0.692800,0.444740,177.630048
0.702800,0.440987,179.506588
0.712800,0.437265,181.367291
0.722800,0.433575,183.212293
0.732800,0.429917,185.041725
0.742800,0.426289,186.855719
0.752800,0.422691,188.654405
0.762800,0.419124,190.437912
0.772800,0.415587,192.206369
0.782800,0.412080,193.959901
0.792800,0.408603,195.698636
0.802800,0.405155,197.422699
0.812800,0.401736,199.132212
0.822800,0.398345,200.827298
0.832800,0.394984,202.508081
0.842800,0.391651,204.174679
0.852800,0.388346,205.827214
0.862800,0.385068,207.465803
0.872800,0.381819,209.090564
0.882800,0.378597,210.701614
0.892800,0.375402,212.299069
0.902800,0.372234,213.883043
0.912800,0.369093,215.453650
0.922800,0.365978,217.011003
0.932800,0.362890,218.555214
0.942800,0.359827,220.086394
0.952800,0.356791,221.604652
0.962800,0.353780,223.110098
0.972800,0.350794,224.602840
0.982800,0.347834,226.082984
0.992800,0.344899,227.550639
1.002800,0.341988,229.005907
1.012800,0.339102,230.448896
1.022800,0.336241,231.879707
1.032800,0.333403,233.298443
1.042800,0.330590,234.705207
1.052800,0.327800,236.100100
1.062800,0.325034,237.483222
1.072800,0.322291,238.854671
1.082800,0.319571,240.214548
1.092800,0.316874,241.562948
1.102800,0.314200,242.899969
1.112800,0.311549,244.225708
1.122800,0.308919,245.540259
1.132800,0.306313,246.843717
1.142800,0.303728,248.136175
1.152800,0.301165,249.417726
1.162800,0.298623,250.688463
1.172800,0.296103,251.948476
1.182800,0.293604,253.197856
1.192800,0.291127,254.436692
1.202800,0.288670,255.665075
1.212800,0.286234,256.883091
1.222800,0.283818,258.090829
1.232800,0.281423,259.288374
1.242800,0.279048,260.475814
1.252800,0.276694,261.653233
1.262800,0.274359,262.820717
1.272800,0.272043,263.978348
1.282800,0.269748,265.126210
1.292800,0.267471,266.264385
1.302800,0.265214,267.392956
1.312800,0.262976,268.512003
1.322800,0.260757,269.621606
1.332800,0.258556,270.721846
1.342800,0.256374,271.812800
1.352800,0.254211,272.894549
1.362800,0.252066,273.967169
1.372800,0.249939,275.030737
1.382800,0.247829,276.085330
1.392800,0.245738,277.131023
1.402800,0.243664,278.167892
1.412800,0.241608,279.196011
1.422800,0.239569,280.215454
1.432800,0.237547,281.226294
1.442800,0.235543,282.228604
1.452800,0.233555,283.222456
1.462800,0.231584,284.207920
1.472800,0.229630,285.185068
1.482800,0.227692,286.153971
1.492800,0.225771,287.114697
1.502800,0.223865,288.067315
1.512800,0.221976,289.011895
1.522800,0.220103,289.948504
1.532800,0.218246,290.877208
1.542800,0.216404,291.798076
1.552800,0.214578,292.711172
1.562800,0.212767,293.616563
1.572800,0.210971,294.514313
1.582800,0.209191,295.404488
1.592800,0.207426,296.287151
1.602800,0.205675,297.162365
1.612800,0.203940,298.030193
1.622800,0.202219,298.890697
1.632800,0.200512,299.743940
1.642800,0.198820,300.589983
1.652800,0.197142,301.428886
1.662800,0.195479,302.260710
1.672800,0.193829,303.085514
1.682800,0.192193,303.903358
1.692800,0.190571,304.714300
1.702800,0.188963,305.518399
1.712800,0.187369,306.315712
1.722800,0.185787,307.106297
1.732800,0.184220,307.890210
1.742800,0.182665,308.667507
1.752800,0.181124,309.438246
1.762800,0.179595,310.202480
1.772800,0.178079,310.960265
1.782800,0.176577,311.711655
1.792800,0.175087,312.456704
1.802800,0.173609,313.195466
1.812800,0.172144,313.927994
1.822800,0.170691,314.654340
1.832800,0.169251,315.374557
1.842800,0.167823,316.088696
1.852800,0.166406,316.796808
1.862800,0.165002,317.498944
1.872800,0.163610,318.195156
1.882800,0.162229,318.885492
1.892800,0.160860,319.570003
1.902800,0.159503,320.248737
1.912800,0.158157,320.921743
1.922800,0.156822,321.589070
1.932800,0.155498,322.250766
1.942800,0.154186,322.906878
1.952800,0.152885,323.557453
1.962800,0.151595,324.202537
1.972800,0.150316,324.842178
1.982800,0.149047,325.476422
1.992800,0.147789,326.105313
2.002800,0.146542,326.728896
2.012800,0.145306,327.347218
2.022800,0.144079,327.960322
2.032800,0.142863,328.568251
2.042800,0.141658,329.171051
2.052800,0.140462,329.768764
2.062800,0.139277,330.361432
2.072800,0.138102,330.949099
2.082800,0.136936,331.531808
2.092800,0.135781,332.109598
2.102800,0.134635,332.682513
2.112800,0.133499,333.250593
2.122800,0.132372,333.813879
2.132800,0.131255,334.372412
2.142800,0.130148,334.926231
2.152800,0.129049,335.475377
2.162800,0.127960,336.019888
2.172800,0.126880,336.559805
2.182800,0.125810,337.095165
2.192800,0.124748,337.626008
2.202800,0.123695,338.152371
2.212800,0.122651,338.674291
2.222800,0.121616,339.191808
2.232800,0.120590,339.704957
2.242800,0.119572,340.213776
2.252800,0.118563,340.718301
2.262800,0.117563,341.218569
2.272800,0.116571,341.714615
2.282800,0.115587,342.206474
2.292800,0.114612,342.694184
2.302800,0.113644,343.177777
2.312800,0.112685,343.657289
2.322800,0.111734,344.132755
2.332800,0.110792,344.604209
2.342800,0.109857,345.071684
2.352800,0.108930,345.535214
2.362800,0.108010,345.994832
2.372800,0.107099,346.450572
2.382800,0.106195,346.902466
2.392800,0.105299,347.350547
2.402800,0.104410,347.794846
2.412800,0.103529,348.235396
2.422800,0.102656,348.672228
2.432800,0.101789,349.105373
2.442800,0.100930,349.534864
2.452800,0.100079,349.960730
2.462800,0.099234,350.383002
2.472800,0.098397,350.801711
2.482800,0.097566,351.216887
2.492800,0.096743,351.628559
2.502800,0.095926,352.036756
2.512800,0.095117,352.441509
2.522800,0.094314,352.842847
2.532800,0.093518,353.240798
2.542800,0.092729,353.635390
2.552800,0.091947,354.026653
2.562800,0.091171,354.414613
2.572800,0.090401,354.799300
2.582800,0.089639,355.180741
2.592800,0.088882,355.558962
2.602800,0.088132,355.933992
2.612800,0.087388,356.305857
2.622800,0.086651,356.674584
2.632800,0.085920,357.040199
2.642800,0.085195,357.402729
2.652800,0.084476,357.762200
2.662800,0.083763,358.118637
2.672800,0.083056,358.472066
2.682800,0.082355,358.822513
2.692800,0.081660,359.170002
2.702800,0.080971,359.514559
2.712800,0.080288,359.856209
2.722800,0.079610,360.194975
2.732800,0.078938,360.530882
2.742800,0.078272,360.863955
2.752800,0.077612,361.194217
2.762800,0.076957,361.521692
2.772800,0.076307,361.846403
2.782800,0.075663,362.168375
2.792800,0.075025,362.487629
2.802800,0.074392,362.804189
2.812800,0.073764,363.118078
2.822800,0.073141,363.429317
2.832800,0.072524,363.737931
2.842800,0.071912,364.043940
2.852800,0.071305,364.347366
2.862800,0.070704,364.648233
2.872800,0.070107,364.946560
2.882800,0.069515,365.242369
2.892800,0.068929,365.535683
2.902800,0.068347,365.826521
2.912800,0.067770,366.114905
2.922800,0.067198,366.400855
2.932800,0.066631,366.684392
2.942800,0.066069,366.965536
2.952800,0.065511,367.244308
2.962800,0.064959,367.520727
2.972800,0.064410,367.794814
2.982800,0.063867,368.066588
2.992800,0.063328,368.336068
3.002800,0.062793,368.603274
3.012800,0.062264,368.868226
3.022800,0.061738,369.130941
3.032800,0.061217,369.391439
3.042800,0.060701,369.649739
3.052800,0.060188,369.905860
3.062800,0.059680,370.159819
3.072800,0.059177,370.411635
3.082800,0.058677,370.661325
3.092800,0.058182,370.908909
3.102800,0.057691,371.154404
3.112800,0.057204,371.397826
3.122800,0.056722,371.639195
3.132800,0.056243,371.878527
3.142800,0.055768,372.115839
3.152800,0.055298,372.351148
3.162800,0.054831,372.584472
3.172800,0.054368,372.815826
3.182800,0.053910,373.045229
3.192800,0.053455,373.272695
3.202800,0.053004,373.498242
3.212800,0.052556,373.721886
3.222800,0.052113,373.943642
3.232800,0.051673,374.163527
3.242800,0.051237,374.381556
3.252800,0.050805,374.597745
3.262800,0.050376,374.812110
3.272800,0.049951,375.024666
3.282800,0.049529,375.235429
3.292800,0.049111,375.444412
3.302800,0.048697,375.651633
3.312800,0.048286,375.857104
3.322800,0.047878,376.060842
3.332800,0.047474,376.262860
3.342800,0.047074,376.463173
3.352800,0.046676,376.661796
3.362800,0.046283,376.858743
3.372800,0.045892,377.054028
3.382800,0.045505,377.247665
3.392800,0.045121,377.439668
3.402800,0.044740,377.630050
3.412800,0.044362,377.818826
3.422800,0.043988,378.006009
3.432800,0.043617,378.191612
3.442800,0.043249,378.375649
3.452800,0.042884,378.558133
3.462800,0.042522,378.739077
3.472800,0.042163,378.918494
3.482800,0.041807,379.096397
3.492800,0.041454,379.272799
3.502800,0.041105,379.447712
3.512800,0.040758,379.621149
3.522800,0.040414,379.793123
3.532800,0.040073,379.963645
3.542800,0.039735,380.132728
3.552800,0.039399,380.300384
3.562800,0.039067,380.466626
3.572800,0.038737,380.631464
3.582800,0.038410,380.794912
3.592800,0.038086,380.956980
3.602800,0.037765,381.117681
3.612800,0.037446,381.277025
3.622800,0.037130,381.435025
3.632800,0.036817,381.591692
3.642800,0.036506,381.747036
3.652800,0.036198,381.901069
3.662800,0.035892,382.053803
3.672800,0.035590,382.205248
3.682800,0.035289,382.355414
3.692800,0.034991,382.504314
3.702800,0.034696,382.651957
3.712800,0.034403,382.798354
3.722800,0.034113,382.943515
3.732800,0.033825,383.087452
3.742800,0.033540,383.230174
3.752800,0.033257,383.371691
3.762800,0.032976,383.512015
3.772800,0.032698,383.651154
3.782800,0.032422,383.789119
3.792800,0.032148,383.925919
3.802800,0.031877,384.061566
3.812800,0.031608,384.196067
3.822800,0.031341,384.329434
3.832800,0.031077,384.461675
3.842800,0.030814,384.592800
3.852800,0.030554,384.722818
3.862800,0.030297,384.851740
3.872800,0.030041,384.979573
3.882800,0.029787,385.106328
3.892800,0.029536,385.232013
3.902800,0.029287,385.356637
3.912800,0.029040,385.480210
3.922800,0.028795,385.602740
3.932800,0.028552,385.724236
3.942800,0.028311,385.844706
3.952800,0.028072,385.964160
3.962800,0.027835,386.082606
3.972800,0.027600,386.200052
3.982800,0.027367,386.316508
3.992800,0.027136,386.431980
4.002800,0.026907,386.546478
4.012800,0.026680,386.660010
4.022800,0.026455,386.772584
4.032800,0.026232,386.884208
4.042800,0.026010,386.994889
4.052800,0.025791,387.104637
4.062800,0.025573,387.213459
4.072800,0.025357,387.321362
4.082800,0.025143,387.428355
4.092800,0.024931,387.534445
4.102800,0.024721,387.639639
4.112800,0.024512,387.743946
4.122800,0.024305,387.847373
4.132800,0.024100,387.949926
4.142800,0.023897,388.051615
4.152800,0.023695,388.152445
4.162800,0.023495,388.252424
4.172800,0.023297,388.351560
4.182800,0.023100,388.449859
4.192800,0.022905,388.547329
4.202800,0.022712,388.643976
4.212800,0.022520,388.739807
4.222800,0.022330,388.834830
4.232800,0.022142,388.929051
4.242800,0.021955,389.022476
4.252800,0.021770,389.115114
4.262800,0.021586,389.206969
4.272800,0.021404,389.298050
4.282800,0.021223,389.388362
4.292800,0.021044,389.477911
4.302800,0.020867,389.566705
4.312800,0.020690,389.654750
4.322800,0.020516,389.742052
4.332800,0.020343,389.828617
4.342800,0.020171,389.914451
4.352800,0.020001,389.999561
4.362800,0.019832,390.083953
4.372800,0.019665,390.167633
4.382800,0.019499,390.250606
4.392800,0.019334,390.332880
4.402800,0.019171,390.414459
4.412800,0.019009,390.495349
4.422800,0.018849,390.575558
4.432800,0.018690,390.655089
4.442800,0.018532,390.733949
4.452800,0.018376,390.812143
4.462800,0.018221,390.889678
4.472800,0.018067,390.966558
4.482800,0.017914,391.042790
4.492800,0.017763,391.118378
4.502800,0.017613,391.193328
4.512800,0.017465,391.267646
4.522800,0.017317,391.341337
4.532800,0.017171,391.414406
4.542800,0.017026,391.486858
4.552800,0.016883,391.558699
4.562800,0.016740,391.629934
4.572800,0.016599,391.700567
4.582800,0.016459,391.770605
4.592800,0.016320,391.840051
4.602800,0.016182,391.908911
4.612800,0.016046,391.977191
4.622800,0.015910,392.044894
4.632800,0.015776,392.112025
4.642800,0.015643,392.178590
4.652800,0.015511,392.244594
4.662800,0.015380,392.310040
4.672800,0.015250,392.374935
4.682800,0.015121,392.439281
4.692800,0.014994,392.503085
4.702800,0.014867,392.566350
4.712800,0.014742,392.629081
4.722800,0.014617,392.691283
4.732800,0.014494,392.752960
4.742800,0.014372,392.814116
4.752800,0.014250,392.874757
4.762800,0.014130,392.934885
4.772800,0.014011,392.994506
4.782800,0.013893,393.053625
4.792800,0.013776,393.112244
4.802800,0.013659,393.170368
4.812800,0.013544,393.228002
4.822800,0.013430,393.285150
4.832800,0.013316,393.341815
4.842800,0.013204,393.398003
4.852800,0.013093,393.453716
4.862800,0.012982,393.508959
4.872800,0.012873,393.563735
4.882800,0.012764,393.618050
4.892800,0.012656,393.671906
4.902800,0.012549,393.725307
4.912800,0.012443,393.778258
4.922800,0.012338,393.830763
4.932800,0.012234,393.882824
4.942800,0.012131,393.934445
4.952800,0.012029,393.985632
4.962800,0.011927,394.036386
4.972800,0.011827,394.086712
4.982800,0.011727,394.136613
4.992800,0.011628,394.186093
5.002800,0.011530,394.235155
5.012800,0.011432,394.283804
5.022800,0.011336,394.332042
5.032800,0.011240,394.379873
5.042800,0.011145,394.427300
5.052800,0.011051,394.474327
5.062800,0.010958,394.520957
5.072800,0.010866,394.567194
5.082800,0.010774,394.613040
5.092800,0.010683,394.658500
5.102800,0.010593,394.703576
5.112800,0.010503,394.748271
5.122800,0.010415,394.792590
5.132800,0.010327,394.836534
5.142800,0.010240,394.880108
5.152800,0.010153,394.923313
5.162800,0.010068,394.966155
5.172800,0.009983,395.008634
5.182800,0.009898,395.050756
5.192800,0.009815,395.092521
5.202800,0.009732,395.133935
5.212800,0.009650,395.174998
5.222800,0.009569,395.215716
5.232800,0.009488,395.256090
5.242800,0.009408,395.296123
5.252800,0.009328,395.335818
5.262800,0.009250,395.375178
5.272800,0.009172,395.414206
5.282800,0.009094,395.452905
5.292800,0.009017,395.491277
5.302800,0.008941,395.529325
5.312800,0.008866,395.567052
5.322800,0.008791,395.604461
5.332800,0.008717,395.641554
5.342800,0.008643,395.678334
5.352800,0.008570,395.714804
5.362800,0.008498,395.750966
5.372800,0.008426,395.786823
5.382800,0.008355,395.822377
5.392800,0.008285,395.857631
5.402800,0.008215,395.892588
5.412800,0.008146,395.927250
5.422800,0.008077,395.961619
5.432800,0.008009,395.995698
5.442800,0.007941,396.029490
5.452800,0.007874,396.062996
5.462800,0.007808,396.096220
5.472800,0.007742,396.129163
5.482800,0.007676,396.161828
5.492800,0.007612,396.194218
5.502800,0.007547,396.226334
5.512800,0.007484,396.258180
5.522800,0.007420,396.289756
5.532800,0.007358,396.321066
5.542800,0.007296,396.352112
5.552800,0.007234,396.382896
5.562800,0.007173,396.413420
5.572800,0.007113,396.443687
5.582800,0.007053,396.473698
5.592800,0.006993,396.503455
5.602800,0.006934,396.532962
5.612800,0.006876,396.562220
5.622800,0.006818,396.591231
5.632800,0.006760,396.619997
5.642800,0.006703,396.648520
5.652800,0.006646,396.676802
5.662800,0.006590,396.704846
5.672800,0.006535,396.732653
5.682800,0.006480,396.760226
5.692800,0.006425,396.787566
5.702800,0.006371,396.814675
5.712800,0.006317,396.841555
5.722800,0.006264,396.868209
5.732800,0.006211,396.894638
5.742800,0.006158,396.920843
5.752800,0.006106,396.946828
5.762800,0.006055,396.972593
5.772800,0.006004,396.998140
5.782800,0.005953,397.023473
5.792800,0.005903,397.048591
5.802800,0.005853,397.073497
5.812800,0.005804,397.098194
5.822800,0.005755,397.122681
5.832800,0.005706,397.146963
5.842800,0.005658,397.171039
5.852800,0.005610,397.194912
5.862800,0.005563,397.218584
5.872800,0.005516,397.242055
5.882800,0.005469,397.265329
5.892800,0.005423,397.288407
5.902800,0.005377,397.311289
5.912800,0.005332,397.333979
5.922800,0.005287,397.356477
5.932800,0.005242,397.378785
5.942800,0.005198,397.400905
5.952800,0.005154,397.422838
5.962800,0.005111,397.444587
5.972800,0.005068,397.466151
5.982800,0.005025,397.487534
5.992800,0.004983,397.508736
6.002800,0.004940,397.529760
6.012800,0.004899,397.550605
6.022800,0.004857,397.571275
6.032800,0.004816,397.591771
6.042800,0.004776,397.612094
6.052800,0.004736,397.632245
6.062800,0.004696,397.652226
6.072800,0.004656,397.672038
6.082800,0.004617,397.691683
6.092800,0.004578,397.711163
6.102800,0.004539,397.730478
6.112800,0.004501,397.749630
6.122800,0.004463,397.768621
6.132800,0.004425,397.787451
6.142800,0.004388,397.806122
6.152800,0.004351,397.824636
6.162800,0.004314,397.842993
6.172800,0.004278,397.861196
6.182800,0.004242,397.879245
6.192800,0.004206,397.897142
6.202800,0.004170,397.914887
6.212800,0.004135,397.932483
6.222800,0.004100,397.949930
6.232800,0.004066,397.967231
6.242800,0.004031,397.984385
6.252800,0.003997,398.001394
6.262800,0.003963,398.018260
6.272800,0.003930,398.034984
6.282800,0.003897,398.051566
6.292800,0.003864,398.068009
6.302800,0.003831,398.084312
6.312800,0.003799,398.100478
6.322800,0.003767,398.116508
6.332800,0.003735,398.132403
6.342800,0.003704,398.148163
6.352800,0.003672,398.163790
6.362800,0.003641,398.179286
6.372800,0.003611,398.194650
6.382800,0.003580,398.209885
6.392800,0.003550,398.224992
6.402800,0.003520,398.239971
6.412800,0.003490,398.254823
6.422800,0.003461,398.269551
6.432800,0.003432,398.284153
6.442800,0.003403,398.298633
6.452800,0.003374,398.312991
6.462800,0.003346,398.327227
6.472800,0.003317,398.341343
6.482800,0.003289,398.355340
6.492800,0.003262,398.369219
6.502800,0.003234,398.382981
6.512800,0.003207,398.396627
6.522800,0.003180,398.410158
6.532800,0.003153,398.423574
6.542800,0.003126,398.436877
6.552800,0.003100,398.450068
6.562800,0.003074,398.463148
6.572800,0.003048,398.476117
6.582800,0.003022,398.488977
6.592800,0.002997,398.501728
